# Wave

# Solution by 15-term Fourier series

# Surface of wave - trough-crest-trough, note quadratic point spacing clustered around crest
# Non-dimensionalised with respect to depth
# X/d, eta/d, & check of surface pressure

 -1.7577	 0.9166	 -9e-14
 -1.5863	 0.9195	  2e-12
 -1.4237	 0.9277	 -2e-12
 -1.2699	 0.9401	 -3e-12
 -1.1249	 0.9559	  7e-12
 -0.9887	 0.9739	 -9e-12
 -0.8613	 0.9932	  9e-12
 -0.7426	 1.0127	 -9e-12
 -0.6328	 1.0315	  1e-11
 -0.5317	 1.0487	 -9e-12
 -0.4394	 1.0638	  6e-12
 -0.3559	 1.0762	  9e-13
 -0.2812	 1.0858	 -6e-12
 -0.2153	 1.0929	  2e-12
 -0.1582	 1.0977	  3e-12
 -0.1099	 1.1007	 -6e-13
 -0.0703	 1.1024	 -2e-12
 -0.0395	 1.1032	 -1e-12
 -0.0176	 1.1035	 -3e-13
 -0.0044	 1.1036	 -9e-14
  0.0000	 1.1036	 -8e-14
  0.0044	 1.1036	 -9e-14
  0.0176	 1.1035	 -3e-13
  0.0395	 1.1032	 -1e-12
  0.0703	 1.1024	 -2e-12
  0.1099	 1.1007	 -6e-13
  0.1582	 1.0977	  3e-12
  0.2153	 1.0929	  2e-12
  0.2812	 1.0858	 -6e-12
  0.3559	 1.0762	  9e-13
  0.4394	 1.0638	  6e-12
  0.5317	 1.0487	 -9e-12
  0.6328	 1.0315	  1e-11
  0.7426	 1.0127	 -9e-12
  0.8613	 0.9932	  9e-12
  0.9887	 0.9739	 -9e-12
  1.1249	 0.9559	  7e-12
  1.2699	 0.9401	 -3e-12
  1.4237	 0.9277	 -2e-12
  1.5863	 0.9195	  2e-12
  1.7577	 0.9166	 -9e-14

